"Sens Factor =1.1dB, EARS Serial 860-1152, compensation HEQ V2"
"Use this file on the RIGHT channel. Your sensitive side is RIGHT."
*
* HEQ: Default headphone compensation curve for flat EQ target,
*      miniDSP EARS version
*
* For use with headphones. Do not use with IEMs.
*
* Changelog:
* Version 1, 24 Feb 2018 : Initial version
* Version 2, 31 March 2018 : More neutral in bass
*
* Freq(Hz) SPL(dB) Phase(degrees)
*
    10.0      0.2     -1.1
    10.6      0.5     -1.1
    11.2      0.8     -1.2
    11.8      1.3     -1.3
    12.5      1.7     -1.3
    13.2      2.1     -1.4
    14.0      2.5     -1.5
    15.0      2.8     -1.6
    16.0      3.0     -1.7
    17.0      3.2     -1.8
    18.0      3.4     -1.9
    19.0      3.5     -2.1
    20.0      3.6     -2.2
    21.2      3.7     -2.3
    22.4      3.8     -2.4
    23.6      3.8     -2.6
    25.0      3.9     -2.7
    26.5      3.9     -2.9
    28.0      4.0     -3.1
    30.0      4.0     -3.4
    31.5      4.1     -3.5
    33.5      4.1     -3.8
    35.5      4.2     -4.1
    37.5      4.2     -4.3
    40.0      4.3     -4.6
    42.5      4.3     -5.0
    45.0      4.3     -5.3
    47.5      4.4     -5.7
    50.0      4.4     -6.0
    53.0      4.4     -6.4
    56.0      4.3     -6.9
    60.0      4.3     -7.5
    63.0      4.2     -7.9
    67.0      4.2     -8.5
    71.0      4.1     -9.0
    75.0      4.0     -9.6
    80.0      3.8    -10.1
    85.0      3.6    -10.7
    90.0      3.5    -11.2
    95.0      3.3    -11.6
   100.0      3.1    -11.9
   106.0      3.0    -12.2
   112.0      2.8    -12.3
   118.0      2.6    -12.3
   125.0      2.4    -12.2
   132.0      2.2    -11.9
   140.0      2.1    -11.6
   150.0      1.9    -10.9
   160.0      1.7    -10.3
   170.0      1.6     -9.6
   180.0      1.5     -8.8
   190.0      1.3     -8.2
   200.0      1.2     -7.5
   212.0      1.1     -6.8
   224.0      1.0     -6.0
   236.0      0.9     -5.4
   250.0      0.7     -4.6
   265.0      0.6     -3.9
   280.0      0.5     -3.2
   300.0      0.4     -2.4
   315.0      0.3     -1.9
   335.0      0.3     -1.2
   355.0      0.2     -0.5
   375.0      0.1      0.0
   400.0      0.1      0.7
   425.0      0.0      1.4
   450.0      0.0      2.0
   475.0      0.0      2.5
   500.0     -0.1      3.1
   530.0     -0.1      3.7
   560.0     -0.1      4.3
   600.0     -0.1      5.1
   630.0      0.0      5.6
   670.0      0.0      6.4
   710.0      0.1      7.1
   750.0      0.1      7.7
   800.0      0.2      8.5
   850.0      0.2      9.4
   900.0      0.2     10.2
   950.0      0.2     10.9
  1000.0      0.2     11.7
  1060.0      0.2     12.6
  1120.0      0.2     13.6
  1180.0      0.2     14.5
  1250.0      0.2     15.5
  1320.0      0.2     16.6
  1400.0      0.3     17.8
  1500.0      0.4     19.3
  1600.0      0.5     20.8
  1700.0      0.6     22.4
  1800.0      0.8     23.9
  1900.0      1.0     25.3
  2000.0      1.2     26.8
  2120.0      1.5     28.6
  2240.0      1.9     30.5
  2360.0      2.3     32.2
  2500.0      2.7     34.3
  2650.0      3.3     36.5
  2800.0      3.8     38.8
  3000.0      4.7     41.5
  3150.0      5.5     43.6
  3350.0      6.7     46.0
  3550.0      8.2     47.6
  3750.0     10.2     47.7
  4000.0     13.0     41.8
  4250.0     15.4     23.4
  4500.0     16.2      2.0
  4750.0     15.9    -16.0
  5000.0     14.9    -32.8
  5300.0     12.9    -47.6
  5600.0     10.9    -56.3
  6000.0      8.6    -61.2
  6300.0      7.1    -62.6
  6700.0      5.5    -62.9
  7100.0      4.2    -62.5
  7500.0      3.0    -61.8
  8000.0      1.8    -60.5
  8500.0      0.7    -59.0
  9000.0     -0.2    -57.6
  9500.0     -1.0    -56.2
 10000.0     -1.8    -54.7
 10600.0     -2.7    -52.6
 11200.0     -3.7    -50.2
 11800.0     -4.7    -47.9
 12500.0     -5.8    -44.7
 13200.0     -6.9    -41.1
 14000.0     -8.0    -36.9
 15000.0     -9.3    -31.6
 16000.0    -10.4    -25.6
 17000.0    -11.5    -18.8
 18000.0    -12.4    -12.4
 19000.0    -13.1     -6.4
 20000.0    -13.7     -0.2
